0.140029475092888,0.331499695777893,0.259787559509277,0.262088537216187,0.352065593004227,0.386087328195572,0.104858718812466,-0.106759041547775,-0.0551165342330933,-0.134522259235382,-0.304170578718185,-0.311122387647629,-0.0468776524066925,0.0934929847717285,0.0473456196486950,0.210692465305328,0.420652478933334,0.407506376504898,0.194574654102325,0.136624962091446,0.162841707468033,-0.0756016373634338,-0.292609572410584,-0.265889197587967,-0.129647076129913,-0.155133813619614,-0.160787329077721,0.125016763806343,0.326234966516495,0.299548566341400,0.255424350500107,0.353390276432037,0.335745364427567,0.0352215170860291,-0.124092772603035,-0.106803223490715,-0.159586966037750,-0.311351180076599,-0.269115954637527,0.0163570493459702,0.124184183776379,0.142854049801826,0.299139857292175,0.495711386203766,0.462791383266449,0.247800379991531,0.228078767657280,0.211047977209091,0.00246790051460266,-0.190602749586105,-0.146185100078583,-0.00414779782295227,-0.0556003004312515,-0.0194093808531761,0.215475365519524,0.365697652101517,0.296906322240829,0.205231443047524,0.275826722383499,0.176362991333008,-0.104802876710892,-0.254487335681915,-0.238393783569336,-0.247751891613007,-0.347252219915390,-0.207638263702393,0.0745456665754318,0.194504320621490,0.224020361900330,0.358744740486145,0.555099427700043,0.462603241205215,0.285200357437134,0.319114983081818,0.338749259710312,0.207359731197357,0.0796756446361542,0.168060064315796,0.257407426834106,0.0981388986110687,-0.0502982959151268,0.0922933667898178,0.264400660991669,0.174415215849876,0.121623948216438,0.149378985166550,-0.0304888635873795,-0.345022171735764,-0.544736325740814,-0.524188101291657,-0.509858131408691,-0.501790642738342,-0.278233438730240,0.0213793180882931,0.191647574305534,0.265673249959946,0.458221375942230,0.601012706756592,0.473798394203186,0.315498948097229,0.250124156475067,0.170505374670029,-0.0761059969663620,-0.266608506441116,-0.191715031862259,-0.106668725609779,-0.0945127382874489,0.0113291703164577,0.323050349950790,0.532815814018250,0.489902675151825,0.518049657344818,0.586570918560028,0.494403421878815,0.255176156759262,0.130144119262695,0.159416705369949,0.0658515095710754,-0.0383685976266861,0.0435087233781815,0.216401487588882,0.243695810437202,0.180510237812996,0.261747330427170,0.289000928401947,0.113214090466499,-0.0964892357587814,-0.173669427633286,-0.228433474898338,-0.410546600818634,-0.469177544116974,-0.316104650497437,-0.161382168531418,-0.0998591110110283,0.0286673158407211,0.292645961046219,0.395178347826004,0.323050439357758,0.295237123966217,0.306601107120514,0.186975821852684,-0.0485799908638001,-0.111012354493141,-0.0604835301637650,-0.0913302302360535,-0.107298657298088,0.0454901754856110,0.275743395090103,0.331069618463516,0.338858991861343,0.441214799880981,0.465080976486206,0.299724102020264,0.0936343818902969,0.0389167666435242,-0.0404073148965836,-0.215104460716248,-0.256893038749695,-0.116839230060577,0.0261029005050659,0.0597673505544663,0.183638691902161,0.391127705574036,0.434994518756866,0.334933042526245,0.264303833246231,0.245599761605263,0.0809470415115356,-0.144716456532478,-0.190964579582214,-0.144442275166512,-0.147369518876076,-0.139891862869263,0.0466922409832478,0.263576537370682,0.309819847345352,0.326738297939301,0.400718331336975,0.405458271503449,0.219011515378952,0.0321972109377384,-0.0129052698612213,-0.0927452594041824,-0.224391371011734,-0.240213483572006,-0.0792642235755920,0.0519780665636063,0.0870845466852188,0.217830836772919,0.385345458984375,0.406272500753403,0.284021556377411,0.210600093007088,0.173775002360344,-0.00510302186012268,-0.195380628108978,-0.227684617042542,-0.163145408034325,-0.153883293271065,-0.118819661438465,0.0873026773333550,0.277906745672226,0.321324110031128,0.324229478836060,0.379847556352615,0.353382259607315,0.147882446646690,-0.0182600207626820,-0.0712379515171051,-0.142951846122742,-0.254325091838837,-0.239085525274277,-0.0572763383388519,0.0665067285299301,0.125750809907913,0.255986332893372,0.404667973518372,0.400630831718445,0.261098891496658,0.189215853810310,0.124467700719833,-0.0496568828821182,-0.216640323400497,-0.226754367351532,-0.145187497138977,-0.130383595824242,-0.0631045252084732,0.138669624924660,0.309848725795746,0.339965283870697,0.327039152383804,0.368389368057251,0.302798539400101,0.0965930372476578,-0.0585691742599011,-0.108445599675179,-0.166023671627045,-0.258166044950485,-0.203886166214943,-0.0216148346662521,0.0989509671926498,0.164805352687836,0.282524526119232,0.410371899604797,0.369220286607742,0.226593449711800,0.146231546998024,0.0620972849428654,-0.106689415872097,-0.261495947837830,-0.246129274368286,-0.164819389581680,-0.136721476912498,-0.0465486086905003,0.147599980235100,0.305571198463440,0.312245815992355,0.294288814067841,0.311940550804138,0.218569248914719,0.0195951461791992,-0.127929881215096,-0.161229312419891,-0.212566331028938,-0.276855349540710,-0.189960807561874,-0.00616004317998886,0.121672123670578,0.186386868357658,0.302552491426468,0.401443660259247,0.330222547054291,0.186138898134232,0.0859863236546516,-0.00719966739416122,-0.172632098197937,-0.304888129234314,-0.266144096851349,-0.181425765156746,-0.144083842635155,-0.0604624710977078,0.133009567856789,0.290211319923401,0.297972142696381,0.280878990888596,0.263586819171906,0.147594422101975,-0.0512847639620304,-0.177633062005043,-0.189056277275085,-0.230244114995003,-0.263669431209564,-0.156425416469574,0.0338474996387959,0.164053976535797,0.240746602416039,0.360247343778610,0.429852426052094,0.344302177429199,0.192912518978119,0.0958854928612709,0.00313609838485718,-0.162596002221107,-0.261190414428711,-0.211081877350807,-0.126036584377289,-0.0762815400958061,0.0190562084317207,0.191307544708252,0.276411116123199,0.232268452644348,0.176602169871330,0.125985816121101,-0.0107463859021664,-0.217878893017769,-0.326386541128159,-0.334721505641937,-0.351150512695313,-0.336272537708282,-0.197214245796204,0.0109067019075155,0.133518487215042,0.206355527043343,0.310819536447525,0.354601740837097,0.258471965789795,0.107874408364296,0.0212683938443661,-0.0699026584625244,-0.208501026034355,-0.266172587871552,-0.190530493855476,-0.0833561494946480,-0.0198220703750849,0.0915086716413498,0.253324359655380,0.317031979560852,0.265127867460251,0.199463963508606,0.141384184360504,-0.00661407178267837,-0.201200976967812,-0.291602849960327,-0.295957297086716,-0.300574183464050,-0.274562925100327,-0.125527605414391,0.0665873736143112,0.166769221425056,0.224438190460205,0.295734554529190,0.302389204502106,0.170492947101593,0.00625533983111382,-0.0917948707938194,-0.197329491376877,-0.324324488639832,-0.364858508110046,-0.270634680986404,-0.155415400862694,-0.0771120190620422,0.0535044372081757,0.209365874528885,0.266115039587021,0.209682017564774,0.146732866764069,0.0852860063314438,-0.0636003986001015,-0.233555972576141,-0.303682148456574,-0.290167421102524,-0.278134614229202,-0.231433868408203,-0.0724098309874535,0.101031340658665,0.185646921396256,0.224126935005188,0.268849968910217,0.244370639324188,0.0928195267915726,-0.0660371705889702,-0.158687978982925,-0.246732681989670,-0.343432426452637,-0.346689820289612,-0.223516285419464,-0.100111842155457,-0.00978601351380348,0.119958326220512,0.256126195192337,0.284875124692917,0.203313216567040,0.124215632677078,0.0408291593194008,-0.116241887211800,-0.268460750579834,-0.320292234420776,-0.289658248424530,-0.260129481554031,-0.199868187308311,-0.0208451300859451,0.112921811640263,0.213157057762146,0.344516336917877,0.255698800086975,0.0338892936706543,-0.0523116588592529,-0.0435969643294811,-0.238569542765617,-0.497014760971069,-0.407482743263245,-0.256723910570145,-0.265603184700012,-0.239355146884918,0.0145283043384552,0.266523540019989,0.186180651187897,0.135537564754486,0.225758999586105,0.173786073923111,-0.0986014530062676,-0.303736805915833,-0.228987291455269,-0.273116767406464,-0.420052230358124,-0.345304846763611,-0.0881962776184082,0.0582685098052025,0.00991460680961609,0.149107068777084,0.326451271772385,0.226916730403900,0.0105947554111481,-0.0693224668502808,-0.0539349019527435,-0.272108137607574,-0.463772982358933,-0.362207293510437,-0.217393040657043,-0.202638238668442,-0.176827579736710,0.0979935973882675,0.278494745492935,0.186893016099930,0.131797254085541,0.174695461988449,0.111846312880516,-0.185291901230812,-0.335790872573853,-0.270387887954712,-0.317263603210449,-0.413440555334091,-0.330560296773911,-0.0518576800823212,0.0517653748393059,0.0238253176212311,0.166702777147293,0.292627781629562,0.193382620811462,-0.0416156053543091,-0.0937716886401177,-0.104229629039764,-0.315661668777466,-0.446605592966080,-0.345286309719086,-0.174641579389572,-0.166111469268799,-0.106028914451599,0.161996334791183,0.286601185798645,0.199658036231995,0.114176258444786,0.146275550127029,0.0368198826909065,-0.264555573463440,-0.380871206521988,-0.344069838523865,-0.368798017501831,-0.448251366615295,-0.323486953973770,-0.0493750050663948,0.0206652656197548,0.0229227691888809,0.135955363512039,0.237186387181282,0.102029003202915,-0.128984719514847,-0.158636957406998,-0.200540870428085,-0.372240006923676,-0.471005350351334,-0.337280660867691,-0.167804837226868,-0.163605913519859,-0.0567495822906494,0.175119072198868,0.278375446796417,0.173837199807167,0.0829616636037827,0.112599983811378,-0.0356927998363972,-0.293233990669251,-0.384929776191711,-0.328980982303619,-0.331226408481598,-0.385393649339676,-0.210657358169556,0.0401045419275761,0.117727860808373,0.120295688509941,0.211854100227356,0.289843529462814,0.110839940607548,-0.0980772376060486,-0.147567451000214,-0.211429208517075,-0.379895746707916,-0.476902782917023,-0.327568769454956,-0.197332724928856,-0.187093868851662,-0.0845356881618500,0.111146092414856,0.192568957805634,0.0662127137184143,0.00541210174560547,0.0123302340507507,-0.142776146531105,-0.368326276540756,-0.451874196529388,-0.362068742513657,-0.348834365606308,-0.357524424791336,-0.155601382255554,0.105448603630066,0.226574197411537,0.281627148389816,0.441208839416504,0.515428006649017,0.323875725269318,0.0525092557072640,-0.120296791195869,-0.270363122224808,-0.534327745437622,-0.649783015251160,-0.491892099380493,-0.323718845844269,-0.202544867992401,-0.00941328704357147,0.236785739660263,0.258600771427155,0.0503624528646469,-0.106948733329773,-0.215567320585251,-0.389554500579834,-0.572194814682007,-0.537374854087830,-0.360526561737061,-0.295729845762253,-0.218857601284981,-0.000657587544992566,0.224891304969788,0.255435109138489,0.196215257048607,0.220974743366241,0.153374254703522,-0.0679295063018799,-0.267721891403198,-0.299880564212799,-0.299609154462814,-0.389576554298401,-0.340279459953308,-0.131166815757751,0.0310950316488743,0.0889449566602707,0.194182142615318,0.356461882591248,0.324496805667877,0.149816766381264,0.0353521853685379,-0.0359855294227600,-0.209226965904236,-0.416216135025024,-0.420593738555908,-0.332844078540802,-0.310549467802048,-0.257030516862869,-0.0630757361650467,0.137258470058441,0.154952436685562,0.143868118524551,0.191660806536675,0.144658654928207,-0.0573583133518696,-0.246236458420753,-0.287348747253418,-0.357189297676086,-0.473704516887665,-0.442604720592499,-0.260684669017792,-0.112861312925816,-0.0644579380750656,0.0643445402383804,0.217788428068161,0.196374401450157,0.0575821399688721,-0.0320205241441727,-0.0807035565376282,-0.246363162994385,-0.402071893215179,-0.371425747871399,-0.269516289234161,-0.219977676868439,-0.151202544569969,0.0562356375157833,0.227779015898705,0.225694701075554,0.197102516889572,0.204944968223572,0.132187068462372,-0.0860331580042839,-0.248037725687027,-0.275757253170013,-0.328710556030273,-0.394643098115921,-0.331526935100555,-0.130706220865250,0.00181787461042404,0.0481483489274979,0.165468543767929,0.270453363656998,0.218050941824913,0.0556585192680359,-0.0357332713901997,-0.0995078682899475,-0.264260083436966,-0.388125330209732,-0.351204454898834,-0.241837725043297,-0.190833628177643,-0.102811247110367,0.105758115649223,0.245802462100983,0.236734837293625,0.193682968616486,0.186847195029259,0.0882209911942482,-0.136885315179825,-0.280455738306046,-0.308076202869415,-0.338761597871780,-0.376691520214081,-0.281529426574707,-0.0720075443387032,0.0485201589763165,0.104013718664646,0.203380435705185,0.280483722686768,0.198603928089142,0.0257048681378365,-0.0648184642195702,-0.149563267827034,-0.303677946329117,-0.405584573745728,-0.343990445137024,-0.219642370939255,-0.161656767129898,-0.0526815094053745,0.143261343240738,0.263767570257187,0.236451059579849,0.182134240865707,0.163877710700035,0.0396809354424477,-0.169510662555695,-0.289378523826599,-0.297193527221680,-0.309324055910111,-0.327005922794342,-0.200162559747696,0.00370045588351786,0.116605661809444,0.166369870305061,0.246785819530487,0.296799957752228,0.183714509010315,0.0146324783563614,-0.0780357569456101,-0.163297712802887,-0.297045081853867,-0.371808379888535,-0.279982686042786,-0.155116364359856,-0.0847405642271042,0.0348721295595169,0.211455151438713,0.306260198354721,0.253400832414627,0.191138207912445,0.148743093013763,0.00976819731295109,-0.183258622884750,-0.284714788198471,-0.273912817239761,-0.276938319206238,-0.264000266790390,-0.117868751287460,0.0760062858462334,0.182457566261292,0.220201283693314,0.286996394395828,0.302233457565308,0.166630595922470,-0.00162640586495399,-0.0997959971427918,-0.180305391550064,-0.303801923990250,-0.350980758666992,-0.243700757622719,-0.117196977138519,-0.0330078676342964,0.0841260552406311,0.248480036854744,0.316086500883102,0.243546694517136,0.171781837940216,0.108938366174698,-0.0353710539638996,-0.223609924316406,-0.305312365293503,-0.280584156513214,-0.271534442901611,-0.229005932807922,-0.0739380046725273,0.110069304704666,0.198774009943008,0.234863057732582,0.296354413032532,0.283349812030792,0.139536738395691,-0.0342773124575615,-0.141387432813644,-0.213649973273277,-0.281447201967239,-0.250569730997086,-0.117591232061386,-0.00126037746667862,0.0602065399289131,0.166659370064735,0.328831583261490,0.387334078550339,0.326332837343216,0.254534065723419,0.164922684431076,-0.0149283558130264,-0.221240147948265,-0.308545798063278,-0.304489403963089,-0.291394114494324,-0.234467923641205,-0.0754545405507088,0.109668359160423,0.190677061676979,0.223859488964081,0.271465659141541,0.251508861780167,0.123401179909706,-0.0119554549455643,-0.0669679492712021,-0.122708916664124,-0.199619442224503,-0.186581298708916,-0.0658962801098824,0.0545162074267864,0.122368738055229,0.220458194613457,0.324950307607651,0.316045194864273,0.211514011025429,0.111094400286675,0.0209019333124161,-0.129766732454300,-0.270560652017593,-0.287354201078415,-0.227539733052254,-0.170024991035461,-0.0830834805965424,0.0903785228729248,0.255728334188461,0.310290396213532,0.316274732351303,0.320609211921692,0.254528999328613,0.0878123193979263,-0.0723623484373093,-0.142446145415306,-0.203777700662613,-0.255459070205689,-0.190352633595467,-0.0773359984159470,0.0647152885794640,0.245955422520638,0.355100601911545,0.365991055965424,0.361682653427124,0.394200623035431,0.275137722492218,-0.0158435888588429,-0.198384493589401,-0.156032592058182,-0.143681704998016,-0.308934748172760,-0.224793195724487,0.0728751868009567,0.179357215762138,0.156998232007027,0.242432460188866,0.435762614011765,0.330311655998230,0.0687820017337799,0.0267950575798750,0.0131242573261261,-0.155618369579315,-0.351182222366333,-0.226335257291794,-0.0235195755958557,-0.0370970107614994,0.0265905261039734,0.262231767177582,0.449960917234421,0.338188886642456,0.228058516979218,0.301135927438736,0.197706192731857,-0.0700847506523132,-0.227440431714058,-0.140340179204941,-0.131388634443283,-0.248507186770439,-0.107925735414028,0.159957870841026,0.277660489082336,0.238543793559074,0.337218165397644,0.487760931253433,0.330767035484314,0.102465219795704,0.0342594943940640,0.0250429511070251,-0.155247956514359,-0.317089706659317,-0.159693658351898,0.00351272523403168,0.0217237658798695,0.0800317376852036,0.313791841268539,0.460067331790924,0.311117321252823,0.227369263768196,0.250394791364670,0.139669150114059,-0.129423901438713,-0.258380919694901,-0.150931745767593,-0.167494207620621,-0.223027780652046,-0.0730690807104111,0.196233481168747,0.303794920444489,0.253909826278687,0.368421822786331,0.451018631458282,0.285858511924744,0.0592090561985970,-0.00550010055303574,-0.00876259803771973,-0.197099894285202,-0.283350795507431,-0.117063865065575,0.0476787090301514,0.0804254114627838,0.143718495965004,0.385869920253754,0.471765100955963,0.329720765352249,0.242374971508980,0.239474266767502,0.122091278433800,-0.150894999504089,-0.225788116455078,-0.130566582083702,-0.135444879531860,-0.153728470206261,0.00171604380011559,0.270784825086594,0.328573554754257,0.289192646741867,0.378241389989853,0.412273347377777,0.242101311683655,0.00577587960287929,-0.0326558575034142,-0.0590781420469284,-0.224525421857834,-0.263805270195007,-0.0970482677221298,0.0841841995716095,0.109912693500519,0.205184191465378,0.426703929901123,0.469462811946869,0.332410097122192,0.226703032851219,0.221210733056068,0.0720668137073517,-0.178276509046555,-0.214431107044220,-0.124733150005341,-0.100220605731010,-0.104336030781269,0.0781727433204651,0.321548193693161,0.353854775428772,0.327969968318939,0.378425359725952,0.389381557703018,0.189339295029640,-0.0293332450091839,-0.0512731373310089,-0.0929902493953705,-0.214500382542610,-0.232137084007263,-0.0451558530330658,0.122136875987053,0.138394281268120,0.243895053863525,0.412839114665985,0.429511070251465,0.270705342292786,0.164695292711258,0.147992342710495,-0.0182671546936035,-0.217114195227623,-0.236796215176582,-0.130007877945900,-0.0914159864187241,-0.0716236978769302,0.138655662536621,0.345787256956100,0.367885351181030,0.326657772064209,0.363220989704132,0.349156320095062,0.125915229320526,-0.0577979274094105,-0.0840760469436646,-0.116817891597748,-0.215986266732216,-0.204642713069916,0.0114787220954895,0.161059781908989,0.201403871178627,0.310629129409790,0.457161009311676,0.449530243873596,0.267224967479706,0.169908046722412,0.120297849178314,-0.0529667288064957,-0.234989613294601,-0.246732652187347,-0.133257418870926,-0.106344848871231,-0.0582672059535980,0.145643293857574,0.326826035976410,0.340877503156662,0.290210783481598,0.327298641204834,0.273411810398102,0.0484960824251175,-0.106450445950031,-0.108531132340431,-0.106285303831100,-0.179228454828262,-0.126060217618942,0.0645368099212647,0.161717206239700,0.176758319139481,0.262543439865112,0.411460995674133,0.409052371978760,0.289835482835770,0.254551768302918,0.220144540071487,0.0648131370544434,-0.116022005677223,-0.132277324795723,-0.0835607200860977,-0.107593365013599,-0.0574665069580078,0.139376074075699,0.365720719099045,0.429921090602875,0.387659519910812,0.338776886463165,0.140388086438179,-0.164533749222755,-0.360520541667938,-0.362971127033234,-0.338300645351410,-0.344911813735962,-0.193436458706856,0.0674969404935837,0.245113387703896,0.309727907180786,0.397183656692505,0.479045689105988,0.360458910465241,0.145690292119980,0.0236478969454765,-0.0541345626115799,-0.207015812397003,-0.319335162639618,-0.224252417683601,-0.0644200742244721,0.0334947407245636,0.151846468448639,0.360550701618195,0.507522284984589,0.461016535758972,0.386288911104202,0.343974620103836,0.209678649902344,-0.0263597071170807,-0.181660220026970,-0.180752038955688,-0.200127884745598,-0.229693129658699,-0.123191222548485,0.0794151052832604,0.203745722770691,0.232589364051819,0.320478856563568,0.384606450796127,0.284510374069214,0.110459923744202,0.0110334083437920,-0.0519789308309555,-0.201122328639030,-0.292258143424988,-0.211326554417610,-0.0913543850183487,-0.0316341295838356,0.0505380444228649,0.230279922485352,0.329426825046539,0.274605959653854,0.214660927653313,0.186531111598015,0.0805715844035149,-0.121731348335743,-0.224435240030289,-0.200895249843597,-0.197483554482460,-0.189221084117889,-0.0634421482682228,0.143841028213501,0.246029630303383,0.267666012048721,0.334101378917694,0.357744276523590,0.236846357584000,0.0520750731229782,-0.0404574349522591,-0.107744872570038,-0.236363679170609,-0.286885768175125,-0.183873295783997,-0.0425345227122307,0.0299513507634401,0.135171994566917,0.305139899253845,0.369355320930481,0.294424712657928,0.205014497041702,0.153849154710770,0.0224529989063740,-0.174608454108238,-0.253961235284805,-0.224292665719986,-0.200727954506874,-0.172842249274254,-0.0255071353167295,0.175829395651817,0.258136332035065,0.274398565292358,0.314828217029572,0.310978621244431,0.165454730391502,-0.0196302458643913,-0.106675937771797,-0.180027693510056,-0.284564971923828,-0.308509260416031,-0.183573648333550,-0.0364271998405457,0.0376031696796417,0.148090019822121,0.293997317552567,0.336724579334259,0.244340047240257,0.145207419991493,0.0792858451604843,-0.0684343874454498,-0.243759393692017,-0.303687423467636,-0.259056895971298,-0.221285447478294,-0.172351092100143,-0.00367459096014500,0.183969423174858,0.258817762136459,0.268090873956680,0.290313661098480,0.260508894920349,0.0923839509487152,-0.0841627269983292,-0.167869120836258,-0.233337298035622,-0.315152376890183,-0.310408920049667,-0.163421273231506,-0.0168256089091301,0.0699166208505631,0.182355165481567,0.307247668504715,0.322443604469299,0.208285719156265,0.106296375393867,0.0242794267833233,-0.127211272716522,-0.285653114318848,-0.325282901525497,-0.261390686035156,-0.213482216000557,-0.140605986118317,0.0302808154374361,0.200182527303696,0.263213127851486,0.256656140089035,0.264839857816696,0.208013027906418,0.0326943062245846,-0.132154613733292,-0.209575533866882,-0.260233551263809,-0.324027925729752,-0.289965987205505,-0.132816240191460,0.00661994982510805,0.0915770903229713,0.191703498363495,0.295611232519150,0.279763609170914,0.153234153985977,0.0457668416202068,-0.0489712543785572,-0.192796081304550,-0.330828219652176,-0.341614276170731,-0.262868076562881,-0.202596485614777,-0.111714586615562,0.0564301982522011,0.209496214985847,0.242928743362427,0.217354744672775,0.204292148351669,0.118236541748047,-0.0619884878396988,-0.221343025565147,-0.285003274679184,-0.320104032754898,-0.356618285179138,-0.292923331260681,-0.133289784193039,0.00498357415199280,0.0839283466339111,0.175852090120316,0.264214247465134,0.225951194763184,0.0972738713026047,-0.0131982527673244,-0.124286644160748,-0.279828637838364,-0.392169147729874,-0.343357801437378,-0.211355417966843,-0.115740217268467,-0.0152604673057795,0.130384057760239,0.262341469526291,0.285124450922012,0.261208415031433,0.247906163334847,0.0997348427772522,-0.0413487143814564,-0.129790306091309,-0.364127516746521,-0.540921807289124,-0.440845936536789,-0.210199087858200,-0.183701932430267,-0.157717138528824,0.131769210100174,0.284939765930176,0.180550366640091,0.0653924942016602,0.127084225416183,0.0881180614233017,-0.210842683911324,-0.314449578523636,-0.220676392316818,-0.203726008534431,-0.302567481994629,-0.216989129781723,0.0851058065891266,0.145827054977417,0.0811282992362976,0.150590375065804,0.255902290344238,0.119994148612022,-0.165888354182243,-0.194376945495605,-0.192215159535408,-0.355338811874390,-0.469416320323944,-0.322323441505432,-0.0965940505266190,-0.110759384930134,-0.0535993129014969,0.177254244685173,0.282642513513565,0.146340698003769,0.00411188602447510,0.0542349666357040,-0.0598056875169277,-0.327166259288788,-0.408935368061066,-0.297665953636169,-0.238851904869080,-0.302791476249695,-0.130633667111397,0.152227222919464,0.216637745499611,0.165533393621445,0.208474978804588,0.289318680763245,0.0829663127660751,-0.184753477573395,-0.232846021652222,-0.258435636758804,-0.400225162506104,-0.501636624336243,-0.308066427707672,-0.110744915902615,-0.0998963713645935,-0.0115742832422256,0.192552626132965,0.288043975830078,0.115716069936752,-0.00183387100696564,0.0156521238386631,-0.128180369734764,-0.364506900310516,-0.445393711328506,-0.315456300973892,-0.286243975162506,-0.320001661777496,-0.126507282257080,0.118414908647537,0.184584036469460,0.115020006895065,0.172269850969315,0.216598883271217,0.000336915254592896,-0.218789055943489,-0.266444265842438,-0.264398962259293,-0.397809743881226,-0.445348560810089,-0.227108299732208,-0.0568580627441406,-0.0224851742386818,0.0505501329898834,0.244242161512375,0.289224565029144,0.0946768671274185,-0.00817337632179260,-0.0335317999124527,-0.172145038843155,-0.400627672672272,-0.443460464477539,-0.301134705543518,-0.283095538616180,-0.269225627183914,-0.0840248614549637,0.148350253701210,0.182015106081963,0.0994504392147064,0.153057381510735,0.138250529766083,-0.0734235048294067,-0.289059579372406,-0.324002265930176,-0.318811416625977,-0.443465799093246,-0.427205443382263,-0.213346153497696,-0.0402500182390213,-0.00405526161193848,0.0682714134454727,0.251655191183090,0.243498057126999,0.0638619363307953,-0.0422510802745819,-0.0772298797965050,-0.214454799890518,-0.428896963596344,-0.421069324016571,-0.287250936031342,-0.246381640434265,-0.205814793705940,-0.0212340354919434,0.196588873863220,0.188991129398346,0.119315713644028,0.145297050476074,0.0975013747811317,-0.115321338176727,-0.323051780462265,-0.329024225473404,-0.338417917490006,-0.429929703474045,-0.379179447889328,-0.164815276861191,0.00893285870552063,0.0280627310276032,0.115392491221428,0.260427474975586,0.217317163944244,0.0371748059988022,-0.0809330791234970,-0.110751047730446,-0.263107061386108,-0.439569652080536,-0.402006536722183,-0.270684748888016,-0.209846794605255,-0.163057699799538,0.0394505560398102,0.223399847745895,0.193556636571884,0.127217888832092,0.124451309442520,0.0646520704030991,-0.161908075213432,-0.337188810110092,-0.329650551080704,-0.342185616493225,-0.393247187137604,-0.325467109680176,-0.0978223532438278,0.0551924929022789,0.0721105784177780,0.161793082952499,0.260476261377335,0.194617122411728,-0.00682792067527771,-0.119511179625988,-0.158982798457146,-0.315211504697800,-0.443922698497772,-0.389257937669754,-0.242589652538300,-0.179837360978127,-0.119647115468979,0.0814429223537445,0.220985010266304,0.181887760758400,0.0988128483295441,0.0850061625242233,0.00615074858069420,-0.222659736871719,-0.360137820243835,-0.347335964441299,-0.338935852050781,-0.369881510734558,-0.279860466718674,-0.0478258654475212,0.0779047906398773,0.101806804537773,0.173440665006638,0.247133925557137,0.159566178917885,-0.0447510182857513,-0.136332735419273,-0.187448441982269,-0.320544242858887,-0.416756212711334,-0.335690170526505,-0.174253955483437,-0.115199744701386,-0.0307249724864960,0.151600405573845,0.257989376783371,0.193882003426552,0.0876941233873367,0.0573755651712418,-0.0589799024164677,-0.276000201702118,-0.390895783901215,-0.362597763538361,-0.329979568719864,-0.337699174880981,-0.203990250825882,0.0209607016295195,0.133527576923370,0.167177796363831,0.232456952333450,0.283022046089172,0.153972238302231,-0.0583961866796017,-0.176711216568947,-0.263200104236603,-0.386471271514893,-0.444254577159882,-0.300332009792328,-0.0946245938539505,0.0310556050390005,0.168755844235420,0.327793955802918,0.377284765243530,0.257037252187729,0.133261218667030,0.0801629126071930,-0.0356545932590961,-0.208087906241417,-0.297321677207947,-0.262472242116928,-0.276729196310043,-0.360702335834503,-0.315044134855270,-0.171373993158340,-0.0861836373806000,-0.0521661937236786,0.0401438772678375,0.112415418028831,0.0299799889326096,-0.0864209979772568,-0.111365161836147,-0.116704747080803,-0.205489605665207,-0.262260735034943,-0.176796734333038,-0.0775675177574158,-0.0375974066555500,0.0284016132354736,0.173256784677506,0.237824991345406,0.155905544757843,0.0988495349884033,0.0735528320074081,-0.0288781002163887,-0.193765357136726,-0.258866816759110,-0.196913674473763,-0.169397622346878,-0.141026854515076,-0.00300150364637375,0.175088256597519,0.238552033901215,0.212529450654984,0.233351618051529,0.209884077310562,0.0494437292218208,-0.138059347867966,-0.227174922823906,-0.273370474576950,-0.362988084554672,-0.359704881906509,-0.205110415816307,-0.0420659855008125,0.0471736788749695,0.144851207733154,0.283858537673950,0.299770414829254,0.174246594309807,0.0567030459642410,-0.0252621453255415,-0.163700655102730,-0.337755441665649,-0.374633878469467,-0.296327441930771,-0.236420407891274,-0.163703784346581,0.00533859804272652,0.199734851717949,0.260562986135483,0.246193721890450,0.255933851003647,0.205793708562851,0.0349829494953156,-0.148820400238037,-0.218880251049995,-0.258264362812042,-0.321371644735336,-0.286551833152771,-0.122028246521950,0.0424607098102570,0.122297845780849,0.218409895896912,0.332905054092407,0.322113037109375,0.193484544754028,0.0729136541485786,-0.00933934748172760,-0.150983706116676,-0.302054286003113,-0.315591543912888,-0.232594311237335,-0.160311296582222,-0.0793401002883911,0.0932547003030777,0.263254046440125,0.299544572830200,0.273830503225327,0.259428292512894,0.193215757608414,0.0146969053894281,-0.154296427965164,-0.210765987634659,-0.244098067283630,-0.282601237297058,-0.231153771281242,-0.0619984827935696,0.0896840244531632,0.162639856338501,0.253070145845413,0.337072938680649,0.302430659532547,0.158968165516853,0.0377680175006390,-0.0471658110618591,-0.186304792761803,-0.307989925146103,-0.299165666103363,-0.198463290929794,-0.114163592457771,-0.0195849668234587,0.154558852314949,0.297088444232941,0.314100205898285,0.270474851131439,0.237396448850632,0.151554912328720,-0.0323004946112633,-0.179960191249847,-0.223569944500923,-0.239557057619095,-0.251830399036407,-0.171454161405563,0.0117142088711262,0.153355911374092,0.223785042762756,0.301407665014267,0.360875487327576,0.301034510135651,0.143721640110016,0.0237893573939800,-0.0682733505964279,-0.196335271000862,-0.290461242198944,-0.255467057228088,-0.137919217348099,-0.0477605462074280,0.0590201802551746,0.225705742835999,0.346053600311279,0.342586010694504,0.283061921596527,0.237553358078003,0.131487622857094,-0.0503569468855858,-0.180917263031006,-0.212218999862671,-0.212553545832634,-0.202240824699402,-0.100610211491585,0.0853186398744583,0.213047623634338,0.275789052248001,0.338335752487183,0.323464125394821,0.256194770336151,0.178579986095428,0.0150334797799587,-0.147284507751465,-0.207533791661263,-0.213023602962494,-0.208244591951370,-0.145436495542526,0.0209589637815952,0.184210866689682,0.267760366201401,0.327670902013779,0.375489115715027,0.335289418697357,0.186765432357788,0.0408210642635822,-0.0576497018337250,-0.167161285877228,-0.261940866708756,-0.250376135110855,-0.134740054607391,-0.0212579369544983,0.0801771581172943,0.225558638572693,0.352767825126648,0.370634913444519,0.303673923015595,0.235037818551064,0.140149906277657,-0.0231093466281891,-0.166372135281563,-0.209998995065689,-0.186201199889183,-0.152154877781868,-0.0674963518977165,0.0973549485206604,0.231379032135010,0.279773920774460,0.326270461082459,0.389500051736832,0.362591028213501,0.218924552202225,0.0649940520524979,-0.0505126565694809,-0.156381070613861,-0.228620991110802,-0.187391638755798,-0.0524155795574188,0.0652422457933426,0.152664735913277,0.255797982215881,0.332122445106506,0.302980750799179,0.207546487450600,0.127898365259171,0.0322198569774628,-0.105621576309204,-0.206730037927628,-0.203640162944794,-0.144790425896645,-0.0795448124408722,0.0457267314195633,0.229896664619446,0.373526632785797,0.427325576543808,0.438839256763458,0.420744299888611,0.305706739425659,0.116682007908821,-0.0425538606941700,-0.145716920495033,-0.234230935573578,-0.282382160425186,-0.215271502733231,-0.0726520046591759,0.0568982586264610,0.174660444259644,0.308247715234756,0.399462103843689,0.374350458383560,0.283180594444275,0.191128000617027,0.0726432651281357,-0.0820765420794487,-0.191843912005425,-0.195195555686951,-0.148403406143188,-0.0847802758216858,0.0396047346293926,0.213242799043655,0.344743818044663,0.391559779644012,0.407593309879303,0.390894711017609,0.284022241830826,0.118802353739738,-0.0139192864298821,-0.0938153564929962,-0.164354309439659,-0.191425502300262,-0.113916873931885,0.0221270844340324,0.138295397162437,0.236488565802574,0.344003796577454,0.397363632917404,0.341545879840851,0.234474301338196,0.130774930119514,0.00925208628177643,-0.134752228856087,-0.216957628726959,-0.194580957293510,-0.129680961370468,-0.0492312163114548,0.0817171931266785,0.247525468468666,0.356239765882492,0.379832923412323,0.372043550014496,0.326485484838486,0.201061457395554,0.0327953062951565,-0.0884250700473785,-0.152551442384720,-0.197790563106537,-0.186596050858498,-0.0781577378511429,0.0756848901510239,0.198197916150093,0.296093165874481,0.389771461486816,0.416494309902191,0.340743303298950,0.220904931426048,0.109638758003712,-0.0142417997121811,-0.147742912173271,-0.209005445241928,-0.171743988990784,-0.0936444103717804,-0.000801667571067810,0.136429935693741,0.293289721012116,0.380642533302307,0.385866045951843,0.357247054576874,0.290863633155823,0.154683470726013,-0.00875510275363922,-0.115631908178329,-0.167023748159409,-0.194150999188423,-0.163524061441422,-0.0433552414178848,0.110114902257919,0.224499717354774,0.313085258007050,0.385855317115784,0.387123405933380,0.291458725929260,0.159299224615097,0.0440750010311604,-0.0765604525804520,-0.189990445971489,-0.223986580967903,-0.165426045656204,-0.0716612637042999,0.0329482518136501,0.175871908664703,0.322252571582794,0.391051888465881,0.381441354751587,0.333887159824371,0.250042378902435,0.103273801505566,-0.0592685639858246,-0.146786376833916,-0.190312147140503,-0.187648952007294,-0.135338276624680,-0.00562096387147903,0.176358371973038
